wavelength,mEos3.2 (Green) ex,mEos3.2 (Green) em,mEos3.2 (Red) ex,mEos3.2 (Red) em
349,0.0004,,,
350,0.0004,,0.1859,
351,0.0004,,0.1878,
352,0.0004,,0.1892,
353,0.0004,,0.1901,
354,0.0004,,0.1906,
355,0.0004,,0.1906,
356,0.0004,,0.1901,
357,0.0004,,0.1891,
358,0.0004,,0.1879,
359,0.0004,,0.1863,
360,0.0004,,0.1841,
361,0.0004,,0.1812,
362,0.0004,,0.1775,
363,0.0004,,0.1729,
364,0.0004,,0.1674,
365,0.0004,,0.161,
366,0.0004,,0.1536,
367,0.0004,,0.1452,
368,0.0004,,0.136,
369,0.0004,,0.1261,
370,0.0003,,0.116,
371,0.0003,,0.106,
372,0.0004,,0.0965,
373,0.0006,,0.0876,
374,0.0008,,0.0795,
375,0.001,,0.0723,
376,0.0012,,0.0659,
377,0.0015,,0.0605,
378,0.0017,,0.0559,
379,0.0019,,0.0521,
380,0.002,,0.0488,
381,0.002,,0.0459,
382,0.002,,0.0432,
383,0.002,,0.041,
384,0.0021,,0.0391,
385,0.0023,,0.0373,
386,0.0026,,0.0356,
387,0.0029,,0.034,
388,0.0032,,0.0325,
389,0.0035,,0.0313,
390,0.0037,,0.0301,
391,0.004,,0.0292,
392,0.004,,0.0285,
393,0.0041,,0.0282,
394,0.0041,,0.028,
395,0.0039,,0.0278,
396,0.004,,0.0276,
397,0.0043,,0.0275,
398,0.0046,,0.0274,
399,0.005,,0.0271,
400,0.0053,,0.0267,
401,0.0056,,0.0263,
402,0.006,,0.0259,
403,0.0066,,0.0255,
404,0.0071,,0.0253,
405,0.0075,,0.0251,
406,0.0078,,0.0251,
407,0.0083,,0.025,
408,0.0089,,0.025,
409,0.0091,,0.025,
410,0.0098,,0.0251,
411,0.0107,,0.0252,
412,0.0116,,0.0253,
413,0.0125,,0.0251,
414,0.0133,,0.0246,
415,0.0142,,0.0241,
416,0.0151,,0.0236,
417,0.0162,,0.0233,
418,0.0171,,0.0231,
419,0.0181,,0.023,
420,0.019,,0.0231,
421,0.02,,0.0232,
422,0.021,,0.0235,
423,0.0218,,0.024,
424,0.0231,,0.0247,
425,0.0244,,0.0256,
426,0.0261,,0.0265,
427,0.0278,,0.0273,
428,0.0299,,0.0281,
429,0.0321,,0.0289,
430,0.0345,,0.0299,
431,0.037,,0.031,
432,0.0396,,0.032,
433,0.0425,,0.0329,
434,0.0455,,0.0337,
435,0.0484,,0.0345,
436,0.0515,,0.0354,
437,0.0546,,0.0363,
438,0.058,,0.0371,
439,0.0617,,0.0379,
440,0.066,,0.0387,
441,0.0702,,0.0396,
442,0.0747,,0.0405,
443,0.0793,,0.0413,
444,0.0843,,0.0423,
445,0.0895,,0.0434,
446,0.095,,0.0446,
447,0.1011,,0.0459,
448,0.1072,,0.0472,
449,0.1136,,0.0486,
450,0.1206,0.0009,0.0502,
451,0.1278,0.0005,0.052,
452,0.1354,0.0002,0.0538,
453,0.1432,0.0,0.0556,
454,0.1513,0.0,0.0574,
455,0.1594,0.0,0.0594,
456,0.1676,0.0,0.0615,
457,0.1768,0.0,0.0637,
458,0.1864,0.0,0.0659,
459,0.196,0.0,0.0682,
460,0.2063,0.0,0.0704,
461,0.2174,0.0003,0.0727,
462,0.2293,0.0004,0.075,
463,0.2425,0.0004,0.0773,
464,0.2565,0.0006,0.0799,
465,0.2714,0.0005,0.0827,
466,0.2873,0.0004,0.0856,
467,0.3039,0.0004,0.0885,
468,0.3205,0.0004,0.0915,
469,0.3376,0.0004,0.0944,
470,0.3545,0.0004,0.0972,
471,0.3716,0.0004,0.0998,
472,0.3878,0.0004,0.1024,
473,0.403,0.0004,0.1051,
474,0.4171,0.0004,0.108,
475,0.43,0.0002,0.1112,
476,0.4418,0.0002,0.1147,
477,0.4522,0.0003,0.1184,
478,0.4611,0.0004,0.1226,
479,0.4698,0.0007,0.1273,
480,0.4781,0.0011,0.1325,
481,0.4858,0.0018,0.1379,
482,0.4931,0.0026,0.1433,
483,0.501,0.0034,0.1485,
484,0.5093,0.0044,0.1537,
485,0.5191,0.0056,0.1589,
486,0.5301,0.007,0.1642,
487,0.5427,0.009,0.1696,
488,0.5564,0.0111,0.1751,
489,0.5725,0.0138,0.1807,
490,0.59,0.0175,0.1865,
491,0.6096,0.0222,0.1925,
492,0.6314,0.0279,0.1987,
493,0.656,0.0351,0.2052,
494,0.6832,0.0439,0.2118,
495,0.7123,0.0564,0.2184,
496,0.7434,0.0714,0.2251,
497,0.7761,0.0904,0.2319,
498,0.8099,0.113,0.2389,
499,0.8444,0.1395,0.2464,
500,0.8779,0.1707,0.2541,0.0003
501,0.9099,0.2073,0.262,0.0003
502,0.9394,0.2493,0.2701,0.0003
503,0.9647,0.2982,0.2784,0.0003
504,0.9839,0.3522,0.2866,0.0003
505,0.9959,0.4119,0.2944,0.0003
506,1.0,0.4787,0.3014,0.0003
507,0.9946,0.5495,0.3074,0.0003
508,0.9804,0.6226,0.3126,0.0003
509,0.9555,0.6964,0.3173,0.0003
510,0.9217,0.7673,0.3218,0.0003
511,0.8776,0.8338,0.3262,0.0003
512,0.825,0.8913,0.3308,0.0003
513,0.7647,0.938,0.3357,0.0003
514,0.6982,0.9726,0.3416,0.0003
515,0.6297,0.9932,0.3488,0.0003
516,0.5599,1.0,0.3576,0.0003
517,0.4909,0.9933,0.3679,0.0003
518,0.4244,0.9739,0.3796,0.0003
519,0.3613,0.9452,0.3924,0.0003
520,0.3036,0.9105,0.4062,0.0003
521,0.2512,0.8698,0.4208,0.0002
522,0.206,0.8256,0.4361,0.0002
523,0.1667,0.7806,0.4519,0.0002
524,0.1343,0.7368,0.4678,0.0004
525,0.1066,0.6956,0.4833,0.0006
526,0.0841,0.6572,0.4981,0.0008
527,0.0655,0.6226,0.5121,0.001
528,0.0509,0.5912,0.5253,0.0013
529,0.0404,0.5624,0.5378,0.0016
530,0.0292,0.5367,0.5491,0.0018
531,0.0207,0.513,0.5588,0.0018
532,0.0149,0.4918,0.5669,0.0019
533,0.0118,0.4723,0.5737,0.0021
534,0.0114,0.4548,0.579,0.0022
535,0.0137,0.4391,0.5824,0.0023
536,0.0187,0.4246,0.5839,0.0024
537,,0.4117,0.5835,0.0026
538,,0.4001,0.5814,0.0029
539,,0.3901,0.5777,0.0033
540,,0.3812,0.5728,0.0038
541,,0.3731,0.5672,0.0044
542,,0.3659,0.5619,0.005
543,,0.3596,0.5572,0.0057
544,,0.3543,0.5532,0.0064
545,,0.3493,0.5502,0.0071
546,,0.345,0.5487,0.0081
547,,0.3406,0.5491,0.0096
548,,0.3365,0.5513,0.0114
549,,0.3322,0.5553,0.0136
550,,0.3275,0.5613,0.0164
551,,0.3222,0.5693,0.0197
552,,0.316,0.5793,0.0236
553,,0.3091,0.591,0.0283
554,,0.3011,0.6048,0.0338
555,,0.292,0.6212,0.0406
556,,0.2826,0.6401,0.0488
557,,0.2727,0.6614,0.0587
558,,0.2623,0.6851,0.0704
559,,0.2515,0.7113,0.0846
560,,0.2406,0.7399,0.1017
561,,0.2299,0.7706,0.122
562,,0.2195,0.8028,0.1462
563,,0.2091,0.8359,0.1754
564,,0.1991,0.8687,0.2093
565,,0.1895,0.8998,0.2478
566,,0.1802,0.9281,0.2916
567,,0.1714,0.9535,0.341
568,,0.1631,0.9753,0.3954
569,,0.1553,0.9917,0.4546
570,,0.1477,1.0,0.519
571,,0.1405,0.9989,0.5863
572,,0.1337,0.9894,0.6543
573,,0.1273,0.9735,0.7213
574,,0.1215,0.9521,0.7853
575,,0.1161,0.9253,0.8438
576,,0.1111,0.8931,0.8953
577,,0.106,0.8561,0.9383
578,,0.1011,0.8145,0.9703
579,,0.0966,0.7688,0.9906
580,,0.0923,0.7203,1.0
581,,0.0887,0.6704,0.9991
582,,0.085,0.6193,0.9877
583,,0.0815,0.5663,0.9674
584,,0.0779,0.5112,0.9406
585,,0.0749,0.4557,0.9077
586,,0.0721,0.4027,0.8702
587,,0.0696,0.3539,0.8301
588,,0.0675,0.3096,0.7887
589,,0.0655,0.2696,0.747
590,,0.0637,0.234,0.7061
591,,0.0617,0.2026,0.6663
592,,0.0599,0.175,0.6277
593,,0.0582,0.1508,0.5912
594,,0.0565,0.1297,0.5576
595,,0.0549,0.1115,0.5262
596,,0.0529,0.0959,0.4968
597,,0.051,0.0825,0.4695
598,,0.0495,0.0708,0.4452
599,,0.0481,0.0605,0.4235
600,,0.0467,0.0512,0.4038
601,,0.0455,0.0432,0.3863
602,,0.044,0.0357,0.3708
603,,0.0426,0.0293,0.357
604,,0.0411,0.0241,0.3447
605,,0.0394,0.02,0.3338
606,,0.038,0.0171,0.3241
607,,0.0364,0.0153,0.3156
608,,0.0347,0.0147,0.3082
609,,0.0332,,0.3018
610,,0.0316,,0.297
611,,0.03,,0.2939
612,,0.029,,0.2922
613,,0.0279,,0.2917
614,,0.0268,,0.2923
615,,0.0256,,0.294
616,,0.0246,,0.2966
617,,0.0236,,0.3001
618,,0.0226,,0.3049
619,,0.0216,,0.3103
620,,0.021,,0.3159
621,,0.02,,0.3214
622,,0.0193,,0.3266
623,,0.0186,,0.3315
624,,0.0177,,0.3361
625,,0.0168,,0.3399
626,,0.016,,0.3426
627,,0.0154,,0.344
628,,0.0147,,0.3444
629,,0.014,,0.3432
630,,0.0134,,0.3406
631,,0.0126,,0.3368
632,,0.0119,,0.3325
633,,0.0115,,0.3273
634,,0.0111,,0.321
635,,0.0108,,0.3134
636,,0.0105,,0.3049
637,,0.0101,,0.2958
638,,0.0096,,0.2861
639,,0.0092,,0.276
640,,0.0088,,0.2656
641,,0.0085,,0.2549
642,,0.008,,0.244
643,,0.0076,,0.2329
644,,0.0073,,0.222
645,,0.007,,0.2118
646,,0.0069,,0.2023
647,,0.0069,,0.1932
648,,0.0069,,0.1841
649,,0.0071,,0.1755
650,,0.0071,,0.1674
651,,0.0071,,0.1599
652,,0.0071,,0.1525
653,,0.0071,,0.1454
654,,0.0071,,0.1389
655,,0.0071,,0.1326
656,,0.0071,,0.1267
657,,0.0071,,0.1215
658,,0.0071,,0.1168
659,,0.0071,,0.1125
660,,0.0071,,0.1083
661,,0.0071,,0.1044
662,,0.0071,,0.1009
663,,0.0071,,0.0976
664,,0.0071,,0.0946
665,,0.0071,,0.0915
666,,0.0071,,0.0881
667,,0.0071,,0.085
668,,0.0071,,0.0823
669,,0.0071,,0.0796
670,,0.0071,,0.0773
671,,0.0071,,0.0755
672,,0.0071,,0.0741
673,,0.0071,,0.0728
674,,0.0071,,0.0716
675,,0.0071,,0.0707
676,,0.0071,,0.0698
677,,0.0071,,0.0692
678,,0.0071,,0.0686
679,,0.0071,,0.0676
680,,0.0071,,0.0666
681,,0.0071,,0.0657
682,,0.0071,,0.0644
683,,0.0071,,0.0629
684,,0.0071,,0.0616
685,,0.0071,,0.0608
686,,0.0071,,0.0602
687,,0.0071,,0.0595
688,,0.0071,,0.0588
689,,0.0071,,0.058
690,,0.0071,,0.0572
691,,0.0071,,0.0568
692,,0.0071,,0.0563
693,,0.0071,,0.0555
694,,0.0071,,0.0542
695,,0.0071,,0.0527
696,,0.0071,,0.051
697,,0.0071,,0.0494
698,,0.0071,,0.048
699,,,,0.0466
700,,,,0.0453
701,,,,0.044
702,,,,0.0425
703,,,,0.0409
704,,,,0.0396
705,,,,0.0387
706,,,,0.0379
707,,,,0.0366
708,,,,0.0352
709,,,,0.0338
710,,,,0.0326
711,,,,0.0314
712,,,,0.0301
713,,,,0.029
714,,,,0.028
715,,,,0.0269
716,,,,0.0257
717,,,,0.0246
718,,,,0.0238
719,,,,0.023
720,,,,0.0222
721,,,,0.0214
722,,,,0.0206
723,,,,0.0199
724,,,,0.0192
725,,,,0.0187
726,,,,0.0184
727,,,,0.0181
728,,,,0.0178
729,,,,0.0174
730,,,,0.0168
731,,,,0.0163
732,,,,0.0157
733,,,,0.0149
734,,,,0.0141
735,,,,0.0135
736,,,,0.013
737,,,,0.0126
738,,,,0.0125
739,,,,0.0125
740,,,,0.0124
741,,,,0.0122
742,,,,0.0118
743,,,,0.0113
744,,,,0.0108
745,,,,0.0102
746,,,,0.0095
747,,,,0.0087
748,,,,0.0079
