wavelength	absorption
nm	
250.0	0.230
250.5	0.231
251.0	0.232
251.5	0.233
252.0	0.233
252.5	0.234
253.0	0.235
253.5	0.235
254.0	0.236
254.5	0.237
255.0	0.237
255.5	0.238
256.0	0.238
256.5	0.240
257.0	0.241
257.5	0.242
258.0	0.244
258.5	0.245
259.0	0.245
259.5	0.245
260.0	0.245
260.5	0.243
261.0	0.241
261.5	0.239
262.0	0.235
262.5	0.231
263.0	0.226
263.5	0.220
264.0	0.214
264.5	0.207
265.0	0.200
265.5	0.192
266.0	0.184
266.5	0.176
267.0	0.168
267.5	0.160
268.0	0.152
268.5	0.145
269.0	0.139
269.5	0.132
270.0	0.127
270.5	0.121
271.0	0.116
271.5	0.112
272.0	0.107
272.5	0.103
273.0	0.100
273.5	0.097
274.0	0.094
274.5	0.092
275.0	0.090
275.5	0.088
276.0	0.086
276.5	0.084
277.0	0.083
277.5	0.081
278.0	0.080
278.5	0.079
279.0	0.079
279.5	0.078
280.0	0.078
280.5	0.078
281.0	0.078
281.5	0.078
282.0	0.078
282.5	0.078
283.0	0.079
283.5	0.079
284.0	0.079
284.5	0.080
285.0	0.081
285.5	0.081
286.0	0.082
286.5	0.083
287.0	0.084
287.5	0.085
288.0	0.086
288.5	0.087
289.0	0.088
289.5	0.089
290.0	0.091
290.5	0.092
291.0	0.094
291.5	0.095
292.0	0.097
292.5	0.098
293.0	0.099
293.5	0.100
294.0	0.101
294.5	0.102
295.0	0.103
295.5	0.104
296.0	0.105
296.5	0.106
297.0	0.107
297.5	0.108
298.0	0.108
298.5	0.109
299.0	0.109
299.5	0.110
300.0	0.111
300.5	0.111
301.0	0.111
301.5	0.112
302.0	0.113
302.5	0.113
303.0	0.114
303.5	0.114
304.0	0.114
304.5	0.114
305.0	0.114
305.5	0.114
306.0	0.114
306.5	0.114
307.0	0.114
307.5	0.113
308.0	0.113
308.5	0.112
309.0	0.112
309.5	0.111
310.0	0.110
310.5	0.109
311.0	0.107
311.5	0.106
312.0	0.105
312.5	0.103
313.0	0.102
313.5	0.101
314.0	0.099
314.5	0.097
315.0	0.096
315.5	0.094
316.0	0.092
316.5	0.090
317.0	0.087
317.5	0.085
318.0	0.083
318.5	0.080
319.0	0.078
319.5	0.075
320.0	0.072
320.5	0.069
321.0	0.066
321.5	0.062
322.0	0.059
322.5	0.056
323.0	0.053
323.5	0.049
324.0	0.046
324.5	0.043
325.0	0.040
325.5	0.038
326.0	0.035
326.5	0.033
327.0	0.031
327.5	0.029
328.0	0.027
328.5	0.025
329.0	0.024
329.5	0.022
330.0	0.021
330.5	0.020
331.0	0.019
331.5	0.019
332.0	0.018
332.5	0.017
333.0	0.016
333.5	0.015
334.0	0.015
334.5	0.014
335.0	0.014
335.5	0.014
336.0	0.013
336.5	0.013
337.0	0.013
337.5	0.013
338.0	0.013
338.5	0.013
339.0	0.013
339.5	0.013
340.0	0.013
340.5	0.013
341.0	0.013
341.5	0.013
342.0	0.013
342.5	0.013
343.0	0.013
343.5	0.013
344.0	0.013
344.5	0.013
345.0	0.012
345.5	0.012
346.0	0.012
346.5	0.012
347.0	0.012
347.5	0.012
348.0	0.012
348.5	0.012
349.0	0.012
349.5	0.012
350.0	0.012
350.5	0.012
351.0	0.012
351.5	0.011
352.0	0.011
352.5	0.012
353.0	0.012
353.5	0.012
354.0	0.012
354.5	0.012
355.0	0.012
355.5	0.012
356.0	0.012
356.5	0.012
357.0	0.012
357.5	0.013
358.0	0.013
358.5	0.013
359.0	0.013
359.5	0.013
360.0	0.013
360.5	0.013
361.0	0.013
361.5	0.013
362.0	0.013
362.5	0.013
363.0	0.013
363.5	0.013
364.0	0.013
364.5	0.013
365.0	0.013
365.5	0.013
366.0	0.013
366.5	0.013
367.0	0.014
367.5	0.014
368.0	0.014
368.5	0.014
369.0	0.015
369.5	0.015
370.0	0.015
370.5	0.015
371.0	0.015
371.5	0.015
372.0	0.015
372.5	0.015
373.0	0.015
373.5	0.014
374.0	0.014
374.5	0.014
375.0	0.014
375.5	0.014
376.0	0.014
376.5	0.014
377.0	0.014
377.5	0.015
378.0	0.015
378.5	0.015
379.0	0.015
379.5	0.015
380.0	0.015
380.5	0.015
381.0	0.016
381.5	0.015
382.0	0.016
382.5	0.016
383.0	0.016
383.5	0.016
384.0	0.016
384.5	0.016
385.0	0.017
385.5	0.017
386.0	0.017
386.5	0.017
387.0	0.017
387.5	0.017
388.0	0.017
388.5	0.017
389.0	0.017
389.5	0.017
390.0	0.017
390.5	0.017
391.0	0.017
391.5	0.017
392.0	0.017
392.5	0.017
393.0	0.017
393.5	0.017
394.0	0.017
394.5	0.018
395.0	0.018
395.5	0.018
396.0	0.019
396.5	0.019
397.0	0.019
397.5	0.019
398.0	0.019
398.5	0.019
399.0	0.020
399.5	0.020
400.0	0.020
400.5	0.020
401.0	0.020
401.5	0.021
402.0	0.021
402.5	0.020
403.0	0.020
403.5	0.021
404.0	0.021
404.5	0.021
405.0	0.021
405.5	0.021
406.0	0.021
406.5	0.022
407.0	0.021
407.5	0.021
408.0	0.021
408.5	0.021
409.0	0.021
409.5	0.021
410.0	0.021
410.5	0.021
411.0	0.021
411.5	0.021
412.0	0.020
412.5	0.020
413.0	0.020
413.5	0.020
414.0	0.020
414.5	0.020
415.0	0.019
415.5	0.019
416.0	0.019
416.5	0.019
417.0	0.019
417.5	0.019
418.0	0.019
418.5	0.019
419.0	0.019
419.5	0.019
420.0	0.019
420.5	0.019
421.0	0.019
421.5	0.019
422.0	0.019
422.5	0.019
423.0	0.019
423.5	0.019
424.0	0.019
424.5	0.019
425.0	0.019
425.5	0.019
426.0	0.019
426.5	0.018
427.0	0.018
427.5	0.018
428.0	0.018
428.5	0.018
429.0	0.018
429.5	0.018
430.0	0.018
430.5	0.018
431.0	0.018
431.5	0.018
432.0	0.018
432.5	0.018
433.0	0.018
433.5	0.018
434.0	0.019
434.5	0.019
435.0	0.019
435.5	0.019
436.0	0.019
436.5	0.019
437.0	0.019
437.5	0.019
438.0	0.019
438.5	0.019
439.0	0.020
439.5	0.020
440.0	0.020
440.5	0.020
441.0	0.020
441.5	0.021
442.0	0.021
442.5	0.021
443.0	0.021
443.5	0.021
444.0	0.021
444.5	0.021
445.0	0.021
445.5	0.021
446.0	0.021
446.5	0.021
447.0	0.021
447.5	0.021
448.0	0.021
448.5	0.021
449.0	0.020
449.5	0.020
450.0	0.020
450.5	0.020
451.0	0.020
451.5	0.020
452.0	0.020
452.5	0.020
453.0	0.020
453.5	0.020
454.0	0.020
454.5	0.020
455.0	0.020
455.5	0.020
456.0	0.020
456.5	0.020
457.0	0.020
457.5	0.020
458.0	0.020
458.5	0.020
459.0	0.020
459.5	0.020
460.0	0.019
460.5	0.019
461.0	0.019
461.5	0.019
462.0	0.019
462.5	0.019
463.0	0.018
463.5	0.018
464.0	0.018
464.5	0.018
465.0	0.018
465.5	0.017
466.0	0.017
466.5	0.017
467.0	0.017
467.5	0.017
468.0	0.017
468.5	0.017
469.0	0.016
469.5	0.016
470.0	0.016
470.5	0.016
471.0	0.016
471.5	0.016
472.0	0.016
472.5	0.016
473.0	0.016
473.5	0.015
474.0	0.015
474.5	0.015
475.0	0.015
475.5	0.015
476.0	0.015
476.5	0.015
477.0	0.015
477.5	0.014
478.0	0.014
478.5	0.014
479.0	0.014
479.5	0.014
480.0	0.014
480.5	0.014
481.0	0.014
481.5	0.014
482.0	0.014
482.5	0.014
483.0	0.014
483.5	0.014
484.0	0.014
484.5	0.014
485.0	0.014
485.5	0.014
486.0	0.014
486.5	0.014
487.0	0.014
487.5	0.014
488.0	0.014
488.5	0.014
489.0	0.013
489.5	0.013
490.0	0.013
490.5	0.013
491.0	0.013
491.5	0.013
492.0	0.013
492.5	0.013
493.0	0.013
493.5	0.013
494.0	0.013
494.5	0.013
495.0	0.013
495.5	0.013
496.0	0.013
496.5	0.013
497.0	0.013
497.5	0.013
498.0	0.013
498.5	0.013
499.0	0.013
499.5	0.013
500.0	0.013
500.5	0.014
501.0	0.014
501.5	0.014
502.0	0.014
502.5	0.014
503.0	0.014
503.5	0.014
504.0	0.014
504.5	0.014
505.0	0.014
505.5	0.015
506.0	0.015
506.5	0.015
507.0	0.015
507.5	0.015
508.0	0.015
508.5	0.016
509.0	0.016
509.5	0.016
510.0	0.016
510.5	0.016
511.0	0.017
511.5	0.017
512.0	0.017
512.5	0.017
513.0	0.018
513.5	0.018
514.0	0.018
514.5	0.018
515.0	0.019
515.5	0.019
516.0	0.019
516.5	0.019
517.0	0.020
517.5	0.020
518.0	0.020
518.5	0.021
519.0	0.021
519.5	0.022
520.0	0.022
520.5	0.022
521.0	0.023
521.5	0.023
522.0	0.024
522.5	0.024
523.0	0.024
523.5	0.025
524.0	0.025
524.5	0.026
525.0	0.026
525.5	0.027
526.0	0.027
526.5	0.028
527.0	0.028
527.5	0.029
528.0	0.029
528.5	0.030
529.0	0.030
529.5	0.031
530.0	0.032
530.5	0.032
531.0	0.033
531.5	0.034
532.0	0.034
532.5	0.035
533.0	0.036
533.5	0.036
534.0	0.037
534.5	0.038
535.0	0.039
535.5	0.039
536.0	0.040
536.5	0.041
537.0	0.042
537.5	0.043
538.0	0.044
538.5	0.045
539.0	0.046
539.5	0.047
540.0	0.048
540.5	0.048
541.0	0.049
541.5	0.051
542.0	0.052
542.5	0.053
543.0	0.054
543.5	0.055
544.0	0.056
544.5	0.057
545.0	0.059
545.5	0.060
546.0	0.061
546.5	0.062
547.0	0.064
547.5	0.065
548.0	0.067
548.5	0.068
549.0	0.069
549.5	0.071
550.0	0.072
550.5	0.073
551.0	0.075
551.5	0.076
552.0	0.078
552.5	0.079
553.0	0.081
553.5	0.082
554.0	0.084
554.5	0.085
555.0	0.087
555.5	0.088
556.0	0.090
556.5	0.092
557.0	0.093
557.5	0.095
558.0	0.096
558.5	0.098
559.0	0.099
559.5	0.101
560.0	0.102
560.5	0.104
561.0	0.106
561.5	0.107
562.0	0.109
562.5	0.111
563.0	0.113
563.5	0.114
564.0	0.116
564.5	0.118
565.0	0.120
565.5	0.121
566.0	0.123
566.5	0.125
567.0	0.127
567.5	0.129
568.0	0.131
568.5	0.133
569.0	0.135
569.5	0.137
570.0	0.139
570.5	0.142
571.0	0.144
571.5	0.146
572.0	0.149
572.5	0.151
573.0	0.154
573.5	0.157
574.0	0.159
574.5	0.162
575.0	0.165
575.5	0.168
576.0	0.171
576.5	0.174
577.0	0.177
577.5	0.180
578.0	0.183
578.5	0.186
579.0	0.189
579.5	0.193
580.0	0.196
580.5	0.199
581.0	0.203
581.5	0.207
582.0	0.210
582.5	0.214
583.0	0.218
583.5	0.221
584.0	0.225
584.5	0.229
585.0	0.233
585.5	0.237
586.0	0.241
586.5	0.245
587.0	0.249
587.5	0.253
588.0	0.257
588.5	0.262
589.0	0.266
589.5	0.270
590.0	0.275
590.5	0.279
591.0	0.284
591.5	0.288
592.0	0.293
592.5	0.297
593.0	0.302
593.5	0.307
594.0	0.312
594.5	0.316
595.0	0.321
595.5	0.326
596.0	0.331
596.5	0.336
597.0	0.341
597.5	0.346
598.0	0.351
598.5	0.355
599.0	0.360
599.5	0.365
600.0	0.370
600.5	0.374
601.0	0.379
601.5	0.383
602.0	0.387
602.5	0.391
603.0	0.395
603.5	0.399
604.0	0.403
604.5	0.406
605.0	0.410
605.5	0.413
606.0	0.416
606.5	0.419
607.0	0.422
607.5	0.424
608.0	0.426
608.5	0.429
609.0	0.431
609.5	0.433
610.0	0.434
610.5	0.436
611.0	0.437
611.5	0.439
612.0	0.440
612.5	0.441
613.0	0.442
613.5	0.443
614.0	0.444
614.5	0.445
615.0	0.446
615.5	0.447
616.0	0.448
616.5	0.449
617.0	0.450
617.5	0.451
618.0	0.452
618.5	0.453
619.0	0.454
619.5	0.455
620.0	0.457
620.5	0.458
621.0	0.460
621.5	0.462
622.0	0.464
622.5	0.467
623.0	0.469
623.5	0.472
624.0	0.475
624.5	0.478
625.0	0.481
625.5	0.485
626.0	0.489
626.5	0.493
627.0	0.498
627.5	0.502
628.0	0.507
628.5	0.512
629.0	0.517
629.5	0.523
630.0	0.529
630.5	0.535
631.0	0.541
631.5	0.547
632.0	0.554
632.5	0.561
633.0	0.568
633.5	0.575
634.0	0.583
634.5	0.590
635.0	0.597
635.5	0.605
636.0	0.612
636.5	0.620
637.0	0.627
637.5	0.635
638.0	0.642
638.5	0.650
639.0	0.657
639.5	0.665
640.0	0.672
640.5	0.680
641.0	0.688
641.5	0.695
642.0	0.702
642.5	0.710
643.0	0.717
643.5	0.725
644.0	0.732
644.5	0.739
645.0	0.747
645.5	0.754
646.0	0.761
646.5	0.769
647.0	0.777
647.5	0.784
648.0	0.792
648.5	0.800
649.0	0.808
649.5	0.817
650.0	0.825
650.5	0.834
651.0	0.843
651.5	0.852
652.0	0.862
652.5	0.871
653.0	0.880
653.5	0.889
654.0	0.898
654.5	0.908
655.0	0.917
655.5	0.926
656.0	0.934
656.5	0.942
657.0	0.950
657.5	0.958
658.0	0.965
658.5	0.971
659.0	0.977
659.5	0.983
660.0	0.988
660.5	0.992
661.0	0.995
661.5	0.998
662.0	0.999
662.5	1.000
663.0	0.999
663.5	0.997
664.0	0.995
664.5	0.990
665.0	0.985
665.5	0.978
666.0	0.970
666.5	0.961
667.0	0.951
667.5	0.939
668.0	0.925
668.5	0.911
669.0	0.896
669.5	0.880
670.0	0.862
670.5	0.844
671.0	0.825
671.5	0.805
672.0	0.785
672.5	0.764
673.0	0.742
673.5	0.719
674.0	0.697
674.5	0.674
675.0	0.650
675.5	0.627
676.0	0.604
676.5	0.580
677.0	0.557
677.5	0.534
678.0	0.512
678.5	0.489
679.0	0.467
679.5	0.445
680.0	0.424
680.5	0.404
681.0	0.384
681.5	0.365
682.0	0.346
682.5	0.328
683.0	0.311
683.5	0.294
684.0	0.278
684.5	0.263
685.0	0.248
685.5	0.234
686.0	0.221
686.5	0.209
687.0	0.197
687.5	0.186
688.0	0.176
688.5	0.166
689.0	0.156
689.5	0.148
690.0	0.139
690.5	0.131
691.0	0.123
691.5	0.117
692.0	0.110
692.5	0.104
693.0	0.097
693.5	0.092
694.0	0.086
694.5	0.081
695.0	0.077
695.5	0.072
696.0	0.068
696.5	0.064
697.0	0.060
697.5	0.057
698.0	0.054
698.5	0.051
699.0	0.049
699.5	0.046
700.0	0.043
700.5	0.041
701.0	0.039
701.5	0.036
702.0	0.035
702.5	0.033
703.0	0.031
703.5	0.029
704.0	0.028
704.5	0.026
705.0	0.025
705.5	0.023
706.0	0.022
706.5	0.021
707.0	0.020
707.5	0.019
708.0	0.018
708.5	0.017
709.0	0.016
709.5	0.015
710.0	0.014
710.5	0.013
711.0	0.013
711.5	0.012
712.0	0.011
712.5	0.010
713.0	0.010
713.5	0.010
714.0	0.009
714.5	0.008
715.0	0.008
715.5	0.008
716.0	0.008
716.5	0.007
717.0	0.007
717.5	0.007
718.0	0.006
718.5	0.006
719.0	0.006
719.5	0.005
720.0	0.005
720.5	0.005
721.0	0.004
721.5	0.004
722.0	0.004
722.5	0.004
723.0	0.004
723.5	0.004
724.0	0.004
724.5	0.003
725.0	0.003
725.5	0.003
726.0	0.003
726.5	0.003
727.0	0.003
727.5	0.003
728.0	0.003
728.5	0.003
729.0	0.003
729.5	0.003
730.0	0.002
730.5	0.002
731.0	0.002
731.5	0.002
732.0	0.002
732.5	0.002
733.0	0.002
733.5	0.002
734.0	0.002
734.5	0.002
735.0	0.002
735.5	0.002
736.0	0.001
736.5	0.001
737.0	0.001
737.5	0.001
738.0	0.001
738.5	0.001
739.0	0.001
739.5	0.001
740.0	0.001
740.5	0.001
741.0	0.000
741.5	0.000
742.0	0.000
742.5	0.000
743.0	0.000
743.5	0.001
744.0	0.001
744.5	0.001
745.0	0.001
745.5	0.001
746.0	0.001
746.5	0.000
747.0	0.000
747.5	0.000
748.0	0.000
748.5	0.000
749.0	0.000
749.5	0.000
750.0	-0.000
